Gold, evaporated (Johnson & Christy 1972, PRB 6, 4370)
1 2 3 0 0 = columns for wave, Re(n), Im(n), eps1, eps2
wave(um) Re(n)   Im(n)   
0.1917   1.3161  1.2353
0.2021   1.3576  1.2745
0.2131   1.3077  1.3261
0.2230   1.3142  1.4370
0.2334   1.3236  1.4904
0.2438   1.3350  1.5863
0.2543   1.3463  1.6770
0.2647   1.3709  1.7677
0.2751   1.4257  1.8414
0.2856   1.4805  1.8773
0.2960   1.5145  1.9000
0.3064   1.5390  1.9018
0.3168   1.5485  1.9056
0.3273   1.5296  1.9037
0.3377   1.4937  1.8924
0.3481   1.5012  1.8792
0.3586   1.5145  1.8867
0.3690   1.4956  1.9094
0.3794   1.4823  1.9359
0.3898   1.4786  1.9548
0.4003   1.4937  1.9699
0.4107   1.4748  1.9699
0.4211   1.4710  1.9699
0.4316   1.4653  1.9680
0.4420   1.4351  1.9491
0.4524   1.3973  1.9283
0.4628   1.3652  1.8981
0.4733   1.3161  1.8659
0.4837   1.2140  1.8565
0.4941   1.0950  1.8584
0.5034   0.9551  1.9151
0.5092   0.8380  2.0190
0.5173   0.7246  2.1399
0.5272   0.6131  2.2760
0.5376   0.5356  2.4121
0.5480   0.4695  2.5462
0.5585   0.4166  2.6690
0.5689   0.3712  2.7975
0.5793   0.3297  2.9223
0.5897   0.2957  3.0451
0.6002   0.2730  3.1679
0.6106   0.2503  3.2888
0.6210   0.2238  3.3909
0.6315   0.2087  3.4986
0.6419   0.1936  3.5987
0.6523   0.1785  3.7027
0.6627   0.1558  3.7953
0.6732   0.1558  3.8935
0.6836   0.1558  3.9861
0.6940   0.1558  4.0825
0.7045   0.1558  4.1694
0.7149   0.1558  4.2563
0.7253   0.1558  4.3470
0.7357   0.1558  4.4377
0.7462   0.1558  4.5266
0.7566   0.1558  4.6135
0.7670   0.1558  4.7004
0.7775   0.1558  4.7854
0.7879   0.1672  4.8743
0.7983   0.1785  4.9593
0.8088   0.1785  5.0443
0.8192   0.1785  5.1294
0.8296   0.1785  5.2144
0.8400   0.1785  5.3013
0.8505   0.1785  5.3863
0.8609   0.1785  5.4695
0.8713   0.1785  5.5545
0.8818   0.1804  5.6414
0.8922   0.1917  5.7246
0.9026   0.2012  5.8021
0.9130   0.2012  5.8795
0.9235   0.2012  5.9589
0.9339   0.2106  6.0345
0.9443   0.2238  6.1139
0.9548   0.2238  6.1894
0.9652   0.2238  6.2688
0.9756   0.2352  6.3463
0.9861   0.2465  6.4256
0.9965   0.2465  6.5069
1.0069   0.2465  6.5844
1.0173   0.2522  6.6656
1.0278   0.2692  6.7469
1.0382   0.2692  6.8244
1.0486   0.2692  6.9056
1.0591   0.2692  6.9850
1.0695   0.2862  7.0643
1.0799   0.2919  7.1437
1.0903   0.2919  7.2269
1.1008   0.2919  7.3081
1.1112   0.3108  7.3875
1.1216   0.3145  7.4687
1.1321   0.3145  7.5481
1.1425   0.3221  7.6294
1.1529   0.3372  7.7106
1.1634   0.3372  7.7938
1.1738   0.3372  7.8731
1.1842   0.3561  7.9525
1.1946   0.3599  8.0337
1.2051   0.3599  8.1150
1.2155   0.3656  8.1962
1.2259   0.3826  8.2775
1.2364   0.3826  8.3588
1.2468   0.3826  8.4381
1.2572   0.3826  8.5194
1.2676   0.3939  8.5987
1.2781   0.4053  8.6819
1.2885   0.4053  8.7612
1.2989   0.4053  8.8406
1.3094   0.4053  8.9238
1.3198   0.4204  9.0031
1.3302   0.4279  9.0844
1.3406   0.4279  9.1637
1.3511   0.4279  9.2469
1.3615   0.4279  9.3244
1.3719   0.4449  9.4075
1.3824   0.4506  9.4869
1.3928   0.4506  9.5681
1.4032   0.4506  9.6513
1.4137   0.4619  9.7306
1.4241   0.4733  9.8138
1.4345   0.4733  9.8969
1.4449   0.4752  9.9763
1.4554   0.4922  10.0594
1.4658   0.4960  10.1369
1.4762   0.4960  10.2200
1.4867   0.5016  10.2975
1.4971   0.5186  10.3807
1.5075   0.5186  10.4619
1.5179   0.5186  10.5432
1.5284   0.5337  10.6263
1.5388   0.5413  10.7057
1.5492   0.5413  10.7869
1.5597   0.5451  10.8663
1.5701   0.5621  10.9495
1.5805   0.5640  11.0326
1.5910   0.5640  11.1101
1.6014   0.5715  11.1932
1.6118   0.5829  11.2726
1.6222   0.5885  11.3557
1.6327   0.6074  11.4370
1.6431   0.6112  11.5182
1.6535   0.6301  11.6014
1.6640   0.6339  11.6826
1.6744   0.6509  11.7658
1.6848   0.6547  11.8470
1.6952   0.6736  11.9283
1.7057   0.6774  12.0114
1.7161   0.6981  12.0927
1.7265   0.7000  12.1739
1.7370   0.7208  12.2571
1.7474   0.7227  12.3364
1.7578   0.7435  12.4215
1.7682   0.7454  12.4990
1.7787   0.7662  12.5802
1.7891   0.7700  12.6679
1.7995   0.7888  12.7344
1.8100   0.7926  12.7612
1.8204   0.8115  12.8672
1.8308   0.8153  12.9577
1.8413   0.8361  13.0389
1.8517   0.8380  13.1433
1.8621   0.8588  13.2208
1.8725   0.8607  13.3236
1.8830   0.8814  13.3489
1.8934   0.8833  13.4392
1.9038   0.9041  13.4827
1.9143   0.9060  13.5628
1.9247   0.9268  13.6460
1.9351   0.9306  13.7272
1.9412   0.9381  13.7669
